#### Test the 'BET' script command ####
#
# Execute the command "BET"
#
#
#plot Pa,Va
#plot Pd,Vd
#labX Relative Pressure
#labY1 Adsorbed Volume (mL/g)
#
#Pa	Va
2.431776e-06	0.277211
2.773193e-06	0.799466
2.968085e-06	1.614651
4.33317e-06	3.251078
1.114632e-05	6.950725
7.993342e-05	15.43795
0.0005852179	26.56375
0.002819101	36.99979
0.005165243	41.2014
0.007745655	44.03895
0.009891945	46.01539
0.01839587	51.03057
0.01997838	51.61754
0.03092008	54.90719
0.04177655	57.36006
0.04985846	58.88219
0.07824339	63.36789
0.103058	66.63101
0.1299086	69.86098
0.1567889	72.96824
0.1834235	75.9495
0.2100315	78.90643
0.2363261	81.84567
0.2622948	84.77829
0.3090954	90.26989
0.3244713	92.10706
0.3521885	95.60011
0.3774565	98.88424
0.4023795	102.3264
0.427052	105.8073
0.4516072	109.5823
0.4764694	113.5351
0.5008157	117.5477
0.5256685	121.9251
0.5504276	126.6451
0.5748181	131.6084
0.5993312	137.058
0.6235225	143.0381
0.6518431	150.8643
0.6733903	157.5188
0.7007669	167.2795
0.7257938	177.7033
0.749602	189.918
0.7729453	204.1997
0.7930221	219.9626
0.799774	226.396
0.82067	249.8746
0.8253511	256.3522
0.8389549	279.0902
0.851714	306.0397
0.8606364	331.2427
0.8701139	363.4429
0.8740112	379.1174
0.8828493	424.7371
0.8894603	461.5909
0.8971737	518.2093
0.9030508	566.4266
0.9110261	634.3642
0.925988	688.0422
0.9490586	696.9738
0.9771095	699.063
0.9915637	700.909


#Pd	Vd
0.9803394	699.126176190476
0.97019674	698.7223130609823
0.9600540799999999	698.3186579874248
0.94991142	697.630744229139
0.93976876	696.9084866459159
0.9296261	695.7147671716245
0.9194834399999999	693.9375948549048
0.90934078	691.5841960147638
0.89919812	690.1278598357236
0.88905546	685.4642672768161
0.8789127999999999	682.920621229969
0.86877014	658.0690058241287
0.85862748	586.6869564740396
0.8484848199999999	484.4452794119483
0.83834216	398.53487146452915
0.8281995	344.57600902825214
0.8180568399999999	306.12332147815596
0.80791418	277.23537618350196
0.79777152	255.72354176838024
0.78762886	239.81164227284245
0.7774862	225.2093539184113
0.7673435399999999	211.89757652742423
0.75720088	201.30381287854613
0.74705822	192.7951212212543
0.7369155599999999	186.02731818314996
0.7267729	181.72331215946974
0.71663024	177.70640120995088
0.70648758	173.00187283589128
0.69634492	168.0941102114794
0.68620226	163.48513217504743
0.6760596	159.30163540234983
0.66591694	155.52312311210522
0.6557742799999999	152.1149196214591
0.64563162	149.01040763932087
0.63548896	146.10364656649026
0.6253462999999999	143.23197642161338
0.61520364	140.2959801071068
0.60506098	137.46125550824604
0.59491832	135.04583260631705
0.58477566	133.08529413585757
0.574633	131.16662648778782
0.56449034	128.8805669351232
0.55434768	126.35607567553137
0.5442050199999999	124.03792651001751
0.53406236	122.12300381986229
0.5239197	120.42129605785588
0.51377704	118.73102420013647
0.50363438	116.99032970204597
0.49349171999999997	115.2227076144069
0.48334906	113.49276463103078
0.47320639999999997	111.87594449077005
0.46306374	110.35124950470738
0.45292108	108.77362017971467
0.44277842	107.03965509495316
0.43263576	105.22679488275442
0.4224931	103.52801195432914
0.41235044	102.08231061705293
0.40220778	100.94618040968743
0.39206512	100.14430088726812
0.38192246	99.74379893581587
0.3717798	99.66602047619044
